"Time (s)","Linear Acceleration x (m/s^2)","Linear Acceleration y (m/s^2)","Linear Acceleration z (m/s^2)","Absolute acceleration (m/s^2)"
0.000000000E0,-1.505897999E0,-1.520745754E0,1.078475952E0,2.396561456E0
4.826562000E-3,-1.483912945E0,-1.457283020E0,1.018406868E0,2.315777186E0
9.652291000E-3,-1.424376726E0,-1.390625715E0,9.356060028E-1,2.199556212E0
1.447885400E-2,-1.394167662E0,-1.288402319E0,8.667602539E-1,2.086853455E0
1.930619800E-2,-1.334398508E0,-1.212728739E0,8.264017105E-1,1.983499473E0
2.413276000E-2,-1.284383059E0,-1.145588398E0,7.762231827E-1,1.887997629E0
2.895854100E-2,-1.231493711E0,-1.069838524E0,7.504587173E-1,1.795639027E0
3.378505200E-2,-1.180060029E0,-1.063385010E0,7.547597885E-1,1.758690334E0
3.861239600E-2,-1.120411158E0,-1.017795563E0,7.511386871E-1,1.689804219E0
4.343895800E-2,-1.027168512E0,-9.161067009E-1,6.892919540E-1,1.539301802E0
4.826473900E-2,-1.014328003E0,-9.074637890E-1,6.702060699E-1,1.517078773E0
5.309125000E-2,-9.179219007E-1,-8.063814640E-1,4.686298370E-1,1.308604450E0
5.791859400E-2,-8.180789351E-1,-6.600708961E-1,4.115333557E-1,1.128851822E0
6.274515600E-2,-6.869161129E-1,-5.902068615E-1,3.944416046E-1,9.878168175E-1
6.757093700E-2,-4.927750230E-1,-5.434451103E-1,3.373498917E-1,8.074433482E-1
7.239750000E-2,-3.072546124E-1,-4.914498329E-1,3.156442642E-1,6.599694210E-1
7.722479100E-2,-1.272579283E-1,-4.458334446E-1,2.724628448E-1,5.377713663E-1
8.205135400E-2,-5.416288972E-3,-3.763628006E-1,2.687788010E-1,4.625152297E-1
8.687713500E-2,1.441392899E-1,-2.952158451E-1,2.336854935E-1,4.031593233E-1
9.170369800E-2,3.095875382E-1,-1.791608334E-1,1.446876526E-1,3.858465561E-1
9.653104100E-2,4.067677855E-1,-6.377577782E-2,4.732704163E-2,4.144481030E-1
1.013576040E-1,4.331389070E-1,5.604577065E-2,4.409122467E-2,4.389697908E-1
1.061833330E-1,4.888718426E-1,1.526644230E-1,8.344936371E-2,5.189083742E-1
1.110098960E-1,5.412944555E-1,1.850299835E-1,8.963489532E-2,5.790252126E-1
1.158372390E-1,5.490971804E-1,1.851840019E-1,8.212375641E-2,5.852735595E-1
1.206638020E-1,5.674121380E-1,1.727490425E-1,2.847480774E-2,5.938093808E-1
1.254895830E-1,5.307978392E-1,1.458709240E-1,-4.464912415E-2,5.522845433E-1
1.303160940E-1,5.482699871E-1,7.485103607E-2,-1.627492905E-1,5.767928466E-1
1.351434370E-1,5.437034965E-1,1.032948494E-2,-2.619628906E-1,6.036097633E-1
1.399700000E-1,5.172719955E-1,-1.083385944E-1,-3.804073334E-1,6.511661138E-1
1.447957810E-1,4.755740762E-1,-2.328085899E-1,-4.218778610E-1,6.770165959E-1
1.496223440E-1,5.168552995E-1,-3.278076649E-1,-4.232196808E-1,7.441183803E-1
1.544496870E-1,6.411730051E-1,-3.400275707E-1,-3.923053741E-1,8.250000472E-1
1.592761980E-1,7.903921008E-1,-2.358362675E-1,-3.555984497E-1,8.982141590E-1
1.641019790E-1,9.128888845E-1,-6.634616852E-2,-2.382545471E-1,9.457976310E-1
1.689285410E-1,9.704632759E-1,7.105350494E-2,-1.051759720E-1,9.787285403E-1
1.737558850E-1,1.078410745E0,1.489286423E-1,-1.255989075E-3,1.088646431E0
1.785824480E-1,1.196980596E0,1.422779560E-1,1.076793671E-2,1.205454898E0
1.834082290E-1,1.281456232E0,1.511719227E-1,-6.499290466E-2,1.291977981E0
1.882347390E-1,1.322667480E0,1.867854595E-1,-1.704607010E-1,1.346623526E0
1.930620830E-1,1.327885151E0,2.061991692E-1,-3.003940582E-1,1.376965381E0
1.978886460E-1,1.275908709E0,2.094724178E-1,-4.872522354E-1,1.381751232E0
2.027144270E-1,1.232352138E0,1.989512444E-1,-6.664657593E-1,1.415079502E0
2.075409890E-1,1.235701680E0,1.700520515E-1,-8.051939011E-1,1.484659409E0
2.123683330E-1,1.232147217E0,1.771705151E-1,-8.805513382E-1,1.524777628E0
2.171948960E-1,1.244160414E0,2.076594830E-1,-9.358158112E-1,1.570607789E0
2.220206250E-1,1.315446138E0,2.517731190E-1,-9.053325653E-1,1.616606105E0
2.268471870E-1,1.414421082E0,3.305089474E-1,-7.974796295E-1,1.657044634E0
2.316745310E-1,1.493774176E0,4.339890480E-1,-6.134119034E-1,1.672118998E0
2.365010940E-1,1.540789604E0,5.383601189E-1,-3.896341324E-1,1.677998504E0
2.413268750E-1,1.680228591E0,6.745634079E-1,-2.211523056E-1,1.824037349E0
2.461534370E-1,3.137424469E0,1.312051773E0,-1.932645321E0,3.911525289E0
2.509807290E-1,3.163580656E0,1.139457464E0,-3.476041794E0,4.836266373E0
2.558072910E-1,2.655671120E0,-5.373368263E-1,-2.200606346E0,3.490557012E0
2.606330730E-1,2.714697838E0,-3.012637377E0,-6.178798676E-1,4.102114558E0
2.654596350E-1,1.345552564E0,2.443907261E-1,-4.632139206E-1,1.443885613E0
2.702869790E-1,7.215281725E-1,1.472792864E0,-3.870229721E-1,1.685084124E0
2.751135410E-1,5.897668600E-1,1.381318808E0,-3.673505783E-1,1.546225418E0
2.799393230E-1,1.064217567E0,4.365725517E-1,-2.993268967E-1,1.188592115E0
2.847658330E-1,1.748258829E0,1.910049915E-1,5.822849274E-2,1.759625641E0
2.895931770E-1,1.978038311E0,3.794755936E-1,2.154664993E-1,2.025601910E0
2.944197390E-1,1.995163798E0,3.040931225E-1,1.798353195E-1,2.026201360E0
2.992455210E-1,1.976567268E0,1.622340679E-1,2.350492477E-1,1.997094441E0
3.040720830E-1,1.797751665E0,1.507706642E-1,5.525293350E-1,1.886778076E0
3.088994270E-1,1.464701772E0,2.086484432E-1,9.421873093E-1,1.754024623E0
3.137259890E-1,1.213000774E0,2.640585899E-1,1.017528534E0,1.605136173E0
3.185517190E-1,1.082308054E0,3.034992218E-1,8.790426254E-1,1.426961260E0
3.233782810E-1,1.041713834E0,3.138988018E-1,7.845258713E-1,1.341335533E0
3.282056250E-1,9.163506031E-1,2.156703472E-1,9.818010330E-1,1.360200498E0
3.330321870E-1,3.068020344E-1,5.958318710E-2,1.271258354E0,1.309112466E0
3.378579690E-1,-1.479906440E0,-6.404604912E-1,9.387712479E-1,1.865905723E0
3.426845310E-1,-2.157610655E-1,-7.091877460E-1,-1.145572662E-1,7.500823047E-1
3.475118750E-1,1.238855004E0,-2.629528046E-1,-1.247682571E-1,1.272585171E0
3.523384370E-1,7.111943960E-1,-1.458375454E-1,-8.468627930E-3,7.260425444E-1
3.571641660E-1,-1.754462719E-2,-2.994747162E-1,-6.817054749E-2,3.076363813E-1
3.619907290E-1,-6.528292894E-1,-5.016312599E-1,-1.772909164E-1,8.421710462E-1
3.668180730E-1,-2.752209902E-1,-7.600593567E-2,-2.619638443E-1,3.874900662E-1
3.716446350E-1,-2.121751308E-1,3.462216854E-1,-3.733854294E-1,5.516379433E-1
3.764704160E-1,-2.560520172E0,-9.428262711E-2,-1.150749207E0,2.808803393E0
3.812969790E-1,-5.733799458E0,-1.239100814E0,-2.121194363E0,6.237891677E0
3.861243230E-1,-1.282791495E0,-8.461048603E-1,-6.694860458E-1,1.676203753E0
3.909508850E-1,1.024787307E0,-6.146793365E-1,1.391424179E0,1.834143112E0
3.957766140E-1,3.428101540E-2,-5.562396049E-1,2.171821594E0,2.242183472E0
4.006031770E-1,-1.040342093E0,-4.736876488E-1,2.061928749E0,2.357592379E0
4.054305210E-1,-1.147763491E0,-1.131436825E-1,1.694287300E0,2.049578488E0
4.102570830E-1,-1.108473539E0,2.252402306E-1,1.497979164E0,1.877069078E0
4.150828640E-1,-1.557221174E0,3.626194000E-1,1.582413673E0,2.249547432E0
4.199094270E-1,-1.754440784E0,5.030486584E-1,2.115407944E0,2.793934714E0
4.247367710E-1,-1.605225921E0,7.148487568E-1,2.922161102E0,3.409807107E0
4.295633330E-1,-1.533353209E0,8.207101822E-1,3.642354012E0,4.036270558E0
4.343890620E-1,-1.240682960E0,8.922262192E-1,3.778685570E0,4.076006191E0
4.392156250E-1,-1.518556237E0,8.369128704E-1,3.708765030E0,4.094065735E0
4.440429690E-1,-1.611008406E0,1.279969692E0,3.569198608E0,4.119811792E0
4.488695310E-1,-9.765622020E-1,1.120743275E0,2.354712486E0,2.784674149E0
4.536953120E-1,-1.607949734E-1,7.596030235E-1,1.221418381E0,1.447312902E0
4.585218750E-1,-9.103226662E-2,1.409170628E-1,5.978469849E-1,6.209392156E-1
4.633492190E-1,-1.337302923E0,-5.203723907E-2,9.636516571E-1,1.649154783E0
4.681757810E-1,-2.003103018E0,2.909069061E-1,1.138959885E0,2.322558535E0
4.730015620E-1,-1.909926534E0,6.871955395E-1,9.119281769E-1,2.225234836E0
4.778281250E-1,-1.479587913E0,9.331326485E-1,6.911277771E-1,1.880844102E0
4.826554690E-1,-1.035586596E0,9.922325611E-1,4.692068100E-1,1.509012950E0
4.874819790E-1,-4.501277804E-1,1.200164557E0,-5.017280579E-3,1.281809328E0
4.923077600E-1,2.045018077E-1,1.470334768E0,-4.919376373E-1,1.563875941E0
4.971343230E-1,6.727942824E-1,1.886109352E0,-6.166620255E-1,2.095312074E0
5.019616660E-1,7.350950241E-1,3.458868027E0,3.317165375E-1,3.551643082E0
5.067882290E-1,2.847373486E-1,3.337578297E0,-7.625808716E-1,3.435408830E0
5.116140100E-1,-2.211851478E-1,2.692456245E0,-1.634223938E0,3.157361459E0
5.164405730E-1,-2.660604417E-1,2.626823902E0,-2.006427765E0,3.316133946E0
5.212679160E-1,-9.942420721E-1,2.531122684E0,-2.149454117E0,3.466302402E0
5.260944790E-1,-5.916847587E-1,2.707793236E0,-2.380505562E0,3.653634053E0
5.309202600E-1,-2.471907139E-1,2.687933445E0,-3.035974026E0,4.062416490E0
5.357467710E-1,-8.619921207E-1,2.641746521E0,-2.864668846E0,3.991012741E0
5.405741140E-1,-1.156636715E0,2.285634041E0,-2.864635944E0,3.842924739E0
5.454006770E-1,-1.710853338E0,1.660398960E0,-2.932869911E0,3.779638841E0
5.502264580E-1,-2.296745062E0,1.054706573E0,-2.816594124E0,3.784262979E0
5.550530210E-1,-2.876021624E0,5.890297890E-1,-2.201876163E0,3.669702319E0
5.598803640E-1,-3.010216713E0,-1.328806877E-1,-1.939720154E0,3.583514506E0
5.647069270E-1,-2.744018793E0,-9.238710403E-1,-2.169569016E0,3.618039047E0
5.695327080E-1,-1.984886169E0,-1.887451649E0,-2.680150509E0,3.832160433E0
5.743592710E-1,-1.265232325E0,-2.697729111E0,-2.926428318E0,4.176426450E0
5.791866140E-1,-5.517061353E-1,-3.231911182E0,-3.363898277E0,4.697386632E0
5.840131770E-1,-1.338120103E-1,-3.110378742E0,-3.259599209E0,4.507476963E0
5.888389580E-1,-1.201952696E-1,-2.659162760E0,-2.235939503E0,3.476351384E0
5.936654690E-1,3.771093488E-1,-2.282332897E0,-1.630945206E0,2.830412899E0
5.984928120E-1,-3.354025483E-1,-2.526162386E0,-1.102430344E0,2.776570534E0
6.033193750E-1,-4.282135367E-1,-2.604194164E0,-1.210428238E0,2.903503160E0
6.081451560E-1,-9.523202181E-1,-1.251096249E0,-7.479572296E-1,1.741147793E0
6.129717190E-1,-1.254588246E0,-5.874013901E-2,-1.184181213E0,1.726188639E0
6.177990620E-1,-1.424425840E0,3.425655365E-1,-1.477379799E0,2.080622789E0
6.226256250E-1,-1.431626081E0,2.420101166E-1,-1.654371262E0,2.201151154E0
6.274514060E-1,-1.398379564E0,-5.892658234E-2,-2.536332130E0,2.896880809E0
6.322779690E-1,-1.165188670E0,-3.430652618E-1,-3.032296181E0,3.266523923E0
6.371053120E-1,-1.257008076E0,-6.728978157E-1,-3.407028675E0,3.693332528E0
6.419318750E-1,-9.977070093E-1,-7.645909786E-1,-3.409852505E0,3.634159152E0
6.467576560E-1,-3.517551422E-1,-6.806936264E-1,-3.128810406E0,3.221262182E0
6.515842190E-1,3.351616859E-2,-6.814188957E-1,-2.753114223E0,2.836387310E0
6.564115620E-1,3.163392544E-1,-6.327648163E-1,-2.606175423E0,2.700483692E0
6.612381250E-1,4.933761358E-1,-6.964383125E-1,-2.807363987E0,2.934235657E0
6.660639060E-1,4.365391731E-1,-9.447286129E-1,-3.173681259E0,3.339959781E0
6.708904160E-1,6.706659794E-1,-1.185710669E0,-3.423943043E0,3.684981493E0
6.757177600E-1,1.044879675E0,-1.455286503E0,-3.624135971E0,4.042770569E0
6.805443230E-1,1.316302657E0,-1.734272957E0,-3.906949759E0,4.472651539E0
6.853701040E-1,1.532463074E0,-1.881743431E0,-4.090462685E0,4.756184015E0
6.901966660E-1,1.599260330E0,-1.845361710E0,-4.036548615E0,4.717702636E0
6.950240100E-1,1.789074183E0,-1.687473297E0,-3.623736382E0,4.379476900E0
6.998505730E-1,2.000047207E0,-1.546608925E0,-3.203989506E0,4.081389071E0
7.046763540E-1,2.243104219E0,-1.319980621E0,-2.772415161E0,3.802650550E0
7.095029160E-1,2.470365763E0,-9.554114342E-1,-2.216554642E0,3.453785241E0
7.143302600E-1,2.336776257E0,-8.149118423E-1,-2.062282085E0,3.221430115E0
7.191568230E-1,2.116772175E0,-9.825525284E-1,-1.983143330E0,3.062513898E0
7.239826040E-1,2.030539513E0,-1.334934950E0,-1.868873119E0,3.065587834E0
7.288091660E-1,1.882142544E0,-1.785296679E0,-1.705339432E0,3.104501146E0
7.336365100E-1,1.775941133E0,-2.209767342E0,-1.638056755E0,3.274182119E0
7.384630730E-1,1.145938158E0,-2.763985395E0,-1.519371033E0,3.355782750E0
7.432888540E-1,1.312536955E0,-3.014765024E0,-1.306962013E0,3.538320380E0
7.481154160E-1,1.330674410E0,-3.085470438E0,-7.539672852E-1,3.443731824E0
7.529427600E-1,8.613686562E-1,-3.160504341E0,-1.880784035E-1,3.281176182E0
7.577693230E-1,6.971445084E-1,-3.218393326E0,5.110359192E-1,3.332450116E0
7.625951040E-1,6.645488739E-1,-3.230154037E0,7.392816544E-1,3.379653485E0
7.674216140E-1,4.709415436E-1,-3.097490788E0,1.023169994E0,3.295923536E0
7.722489580E-1,5.061531067E-1,-2.858317614E0,1.224473953E0,3.150477267E0
7.770755210E-1,4.457869530E-1,-2.583655596E0,1.379338264E0,2.962528699E0
7.819013020E-1,5.820088387E-1,-2.332926035E0,1.137105942E0,2.659753390E0
7.867278640E-1,3.741850853E-1,-2.095616341E0,6.146702766E-1,2.215726038E0
7.915552080E-1,2.556076050E-1,-1.847046375E0,5.038309097E-1,1.931517835E0
7.963817710E-1,3.487558365E-1,-1.827249527E0,3.055148125E-1,1.885155370E0
8.012075520E-1,1.710615158E-1,-1.922537327E0,-7.175111771E-2,1.931465775E0
8.060341140E-1,2.848324776E-1,-1.746253490E0,-5.520820618E-2,1.770191724E0
8.108614580E-1,2.274956703E-1,-1.780302048E0,9.314250946E-2,1.797193698E0
8.156880210E-1,-1.841568947E-1,-1.906577110E0,2.995734215E-1,1.938735225E0
8.205138020E-1,-6.858229637E-1,-1.872851372E0,7.027721405E-1,2.114666423E0
8.253403640E-1,-1.200241566E0,-1.735964775E0,1.136886120E0,2.397219966E0
8.301677080E-1,-2.018425465E0,-4.368257523E-2,3.546878815E0,4.081212914E0
8.349942710E-1,-3.705518723E0,-1.426186562E0,2.422958851E0,4.651409110E0
8.398200520E-1,-4.300616741E0,-1.913624287E0,3.151507854E0,5.664738654E0
8.446466140E-1,-4.466878891E0,-2.858791113E0,2.084302425E0,5.698246244E0
8.494739580E-1,-3.740463734E0,-3.531051874E0,1.313593388E0,5.308947529E0
8.543005210E-1,-3.175850391E0,-3.432845831E0,2.207381964E0,5.171362619E0
8.591263020E-1,-2.743527889E0,-3.052251101E0,2.636929035E0,4.878173510E0
8.639528640E-1,-2.690913200E0,-2.522637606E0,2.646191359E0,4.539498105E0
8.687802080E-1,-2.641081333E0,-2.260325432E0,2.287487745E0,4.161367786E0
8.736067710E-1,-2.787528515E0,-2.306046247E0,2.077881336E0,4.172020537E0
8.784325520E-1,-3.160260201E0,-2.550221920E0,2.156135321E0,4.597803377E0
8.832591140E-1,-3.779348373E0,-2.722052336E0,2.322736025E0,5.204627334E0
8.880864580E-1,-4.045095444E0,-2.609281540E0,2.603713512E0,5.472702382E0
8.929130210E-1,-4.369488239E0,-2.316367865E0,2.401364326E0,5.497684802E0
8.977387500E-1,-4.899232388E0,-1.942347050E0,1.547308207E0,5.492663537E0
9.025653120E-1,-5.200375080E0,-1.257097244E0,7.907650471E-1,5.408281041E0
9.073927080E-1,-5.255082130E0,-2.440619469E-1,7.236733437E-1,5.310287896E0
9.122192710E-1,-5.304642200E0,5.716657639E-1,8.464181423E-1,5.402078701E0
9.170450000E-1,-5.461024284E0,8.833088875E-1,9.200613499E-1,5.607988384E0
9.218715620E-1,-5.379132748E0,9.542264938E-1,9.135897160E-1,5.538976755E0
9.266989060E-1,-4.894088745E0,9.634418488E-1,1.119672060E0,5.112141465E0
9.315254690E-1,-4.348703861E0,7.820925713E-1,1.225016356E0,4.585145487E0
9.363512500E-1,-4.000770569E0,4.842433929E-1,1.466391563E0,4.288468378E0
9.411778120E-1,-3.616230965E0,2.766876221E-1,1.708173513E0,4.008932424E0
9.460051560E-1,-3.247391224E0,1.680994034E-1,2.013630867E0,3.824724361E0
9.508317190E-1,-3.162603855E0,1.724724770E-1,2.064764977E0,3.780881419E0
9.556575000E-1,-3.398067474E0,8.925676346E-2,2.004539967E0,3.946265299E0
9.604840620E-1,-3.942537785E0,-1.359753609E-1,1.917573214E0,4.386249025E0
9.653114060E-1,-4.480530262E0,-4.673418999E-1,1.872942924E0,4.878675546E0
9.701379690E-1,-4.888194561E0,-8.471784592E-1,1.715423822E0,5.249270073E0
9.749637500E-1,-5.104121208E0,-1.210595131E0,1.671000004E0,5.505436848E0
9.797903120E-1,-5.152490616E0,-1.135268211E0,1.584090233E0,5.508750795E0
9.846176560E-1,-5.297445297E0,-1.112781048E0,1.540393591E0,5.627967728E0
9.894442190E-1,-5.275902271E0,-9.397835732E-1,1.341848493E0,5.524390945E0
9.942700000E-1,-4.946796417E0,-4.655933380E-1,1.347088575E0,5.148030651E0
9.990965620E-1,-4.925601482E0,-3.487939835E-1,1.063083053E0,5.051074419E0
1.003923906E0,-4.943958759E0,-3.303866386E-1,1.082602382E0,5.071874551E0
1.008750469E0,-4.987648010E0,-6.296191216E-1,9.830591679E-1,5.122446509E0
1.013576250E0,-4.980861664E0,-1.116927147E0,1.015110135E0,5.204513210E0
1.018402812E0,-4.595177174E0,-1.665272713E0,1.299193740E0,5.057340293E0
1.023230156E0,-4.077625275E0,-2.169183254E0,1.719361305E0,4.928345277E0
1.028056719E0,-3.780897141E0,-2.482579708E0,1.996076345E0,4.943956510E0
1.032882500E0,-3.606081009E0,-2.648877621E0,2.223176479E0,4.996287277E0
1.037709062E0,-3.302638054E0,-2.423582077E0,2.783051014E0,4.952427803E0
1.042536406E0,-3.212068558E0,-2.297481537E0,2.822859764E0,4.854311803E0
1.047362969E0,-3.048399925E0,-2.285593510E0,2.948157787E0,4.817500818E0
1.052188750E0,-2.667323112E0,-2.116694450E0,2.870673180E0,4.453736913E0
1.057015312E0,-2.165733337E0,-2.044787884E0,2.717352867E0,4.031819066E0
1.061842656E0,-1.764400482E0,-2.092086554E0,2.524065971E0,3.723015476E0
1.066669219E0,-1.404636860E0,-2.211988449E0,2.335100174E0,3.509784955E0
1.071495000E0,-1.075534821E0,-2.319832325E0,2.416080236E0,3.517931335E0
1.076321562E0,-9.302320480E-1,-2.376177073E0,2.605469704E0,3.646919456E0
1.081148906E0,-5.842680931E-1,-2.253040791E0,2.342998266E0,3.302605469E0
1.085975469E0,-2.670559883E-1,-1.929533482E0,2.043237686E0,2.822983989E0
1.090801250E0,-2.786636353E-1,-1.589756489E0,1.576850891E0,2.256421470E0
1.095627812E0,-3.392333984E-1,-1.401007652E0,7.322005033E-1,1.616792911E0
1.100455156E0,-2.844610214E-1,-1.291197300E0,1.059065223E0,1.694027062E0
1.105281719E0,-2.595844269E-1,-1.212101936E0,1.165533066E0,1.701482444E0
1.110107500E0,-2.638568878E-1,-1.103317738E0,1.341734171E0,1.757037584E0
1.114934062E0,-1.913614273E-1,-1.056828022E0,1.323447347E0,1.704411201E0
1.119761406E0,-4.144096375E-2,-7.203102112E-1,1.563838005E0,1.722252438E0
1.124587969E0,-6.815242767E-2,1.456470490E-1,2.343288898E0,2.348799838E0
1.129413750E0,6.901550293E-2,9.278860092E-1,3.159598827E0,3.293751711E0
1.134240312E0,-2.363872528E-2,1.160308361E0,3.827429295E0,3.999511131E0
1.139067656E0,-3.620052338E-2,6.103043556E-1,4.113581181E0,4.158765684E0
1.143894219E0,8.077621460E-4,-6.017088890E-1,4.140267372E0,4.183762440E0
1.148720000E0,2.603521347E-1,-1.708746433E0,4.467310905E0,4.790038030E0
1.153546562E0,4.148955345E-1,-2.587417841E0,5.083832741E0,5.719460178E0
1.158373906E0,5.512647629E-1,-3.085751057E0,5.594762325E0,6.413042796E0
1.163200469E0,6.083040237E-1,-3.150049686E0,6.091378689E0,6.884601742E0
1.168026250E0,6.371521950E-1,-3.075382233E0,6.247958183E0,6.992919294E0
1.172852812E0,4.284906387E-1,-2.793460608E0,6.022012711E0,6.652192381E0
1.177680156E0,1.405858994E-1,-2.518158913E0,5.359987259E0,5.923711009E0
1.182506719E0,-1.077432632E-1,-2.176740646E0,4.732645035E0,5.210349074E0
1.187332500E0,-2.315740585E-1,-1.701583147E0,4.368216991E0,4.693647988E0
1.192159062E0,-2.792654037E-1,-1.322788715E0,3.868434429E0,4.097870677E0
1.196986406E0,-3.466053009E-1,-1.071068764E0,3.147823572E0,3.343069962E0
1.201812969E0,-2.739982605E-1,-1.038702965E0,2.667587280E0,2.875760907E0
1.206638750E0,-2.027215958E-1,-1.085989714E0,2.248621941E0,2.505348346E0
1.211465312E0,-7.321548462E-2,-1.090520620E0,1.795897007E0,2.102341977E0
1.216292656E0,4.005050659E-2,-9.975552559E-1,1.410163403E0,1.727796676E0
1.221119219E0,3.321914673E-1,-1.003471613E0,6.742373705E-1,1.253755351E0
1.225945000E0,4.151883125E-1,-1.490472794E0,-8.077146411E-1,1.745363408E0
1.230771562E0,4.768509865E-1,-1.647030830E0,-2.639156580E0,3.147259899E0
1.235598906E0,3.468132019E-1,-1.548963547E0,-3.734850883E0,4.058161972E0
1.240425469E0,3.448157310E-1,-1.460056782E0,-4.112461090E0,4.377556386E0
1.245251250E0,3.987798691E-1,-1.521023273E0,-4.419900894E0,4.691274997E0
1.250077812E0,5.609974861E-1,-1.709794760E0,-4.124257088E0,4.499734751E0
1.254905156E0,7.600045204E-1,-1.772291660E0,-3.953823328E0,4.399016198E0
1.259731719E0,7.909035683E-1,-2.060984612E0,-3.156904459E0,3.852172346E0
1.264557500E0,1.048129082E0,-1.677936554E0,-1.467812777E0,2.463436624E0
1.269384062E0,1.346251011E0,-7.891793251E-1,9.085705280E-1,1.805739792E0
1.274211406E0,9.168677330E-1,2.981042862E-2,1.734961748E0,1.962556335E0
1.279037969E0,2.460346222E-1,4.938168526E-1,6.957330704E-1,8.879372863E-1
1.283863750E0,-3.935422897E-1,7.759742737E-1,-5.718086958E-1,1.041142061E0
1.288690312E0,-8.118133545E-1,8.912653923E-1,-1.509467602E0,1.931809350E0
